1.0611,0.95524,0.97846,0.8282,0.56179,0.6513,0.264,0.058508,0.11315,-0.15492,-0.3546,-0.32588,-0.33272,-0.43718,-0.22568,-0.34121,-0.34474,-0.37189,-0.10894,-0.30913,-0.1307,0.0041787,-0.19593,-0.057611,-0.22928,-0.14673,-0.12002,-0.14895,-0.14172,-0.020924,0.077331,-0.03826,-0.076033,-0.11766,-0.18232,-0.15824,0.088623,-0.14632,0.0012451,-0.077366,-0.15582,0.082157,-0.068276,0.10301,-0.091475,-0.13107,-0.073393,-0.12709,0.064142,0.028589,-0.028928,0.003349,0.038761,-0.011764,0.10566,0.07575,0.11415,0.02461,0.16361,0.01691,0.08424,0.090226,0.093584,0.2555,0.21207,0.28364,0.25173,0.15985,0.25268,0.14623,0.1862,0.46865,0.2784,0.34011,0.23944,0.43201,0.40214,0.46604,0.36911,0.29217,0.51714,0.29009,0.29159,0.52687,0.38141,0.45008,0.47282,0.29921,0.46592,0.27246,0.23457,0.44127,0.45736,0.37476,0.31815,0.21492,0.3419,0.3324,0.2513,0.23731,0.38571,0.19832,0.27814,0.21152,0.22227,0.25237,0.19183,0.17504,0.21373,0.23322,0.24816,-0.0027291,0.024773,0.0099083,0.1498,0.058178,0.1251,-0.052265,0.090398,0.084358,-0.13321,0.081902,0.13441,0.030781,-0.006385,0.02197,-0.010104,-0.13282,-0.18139,-0.11413,0.09991,0.030234,0.081541,-0.060262,0.037868,0.0055885,-0.13563,0.045025,0.032488,-0.17218,0.006363,-0.17821,-0.18171,-0.10808,-0.029899,0.08304,0.084053,0.036715,-0.089571,-0.12011,0.04362,-0.011574,-0.0086048,0.04398,-0.13973,-0.029578,0.047605,0.0036335,-0.10458,-0.11322,0.086813,-0.024355,-0.075825,0.0025237,-0.15457,-0.052748,-0.045778,-0.076283,-0.062371,-0.087645,0.072942,0.019364,0.076949,0.060852,-0.16026,0.089132,-0.13572,0.06171,0.021581,-0.083583,0.0077326,0.038873,-0.096309,0.039598,-0.057498,-0.080888,0.01452,0.041548,-0.013738,0.058516,0.11344,-0.028194,-0.1031,0.0652,-0.085714,-0.15665,0.016044,-0.10142,0.072664,0.13291,0.0044074,-0.010969,-0.034621,0.10127,-0.0013422,-0.102,-0.097583,0.07387,0.1322,-0.023576,-0.085505,-0.041794,0.12511,-0.13165,0.013354,0.12742,-0.11671,0.12494,0.077249,-0.10439,-0.019758,-0.013737,-0.079542,0.075813,0.13427,0.20083,0.25537,0.26837,0.093177,0.11217,0.2436,0.21337,0.23812,0.18688,0.20732,0.38161,0.17469,0.15848,0.26881,0.36634,0.42543,0.22358,0.32397,0.33244,0.31091,0.17585,0.20941,0.18715,0.31035,0.40808,0.3555,0.2657,0.13312,0.11075,0.17371,0.083819,0.20798,0.25885,0.017691,0.11525,0.1431,0.066328,0.068579,0.21691,0.058935,0.061231,0.19687,-0.081777,-0.0095444,-0.065641,0.011071,0.10721,-0.002773,0.011089,0.13934,-0.032315,0.14704,0.035785,-0.088114,-0.13445,-0.041631,-0.12334,-0.14701,-0.18154,-0.10374,-0.13641,-0.16637,-0.20797,-0.055608,-0.16999,-0.017183,-0.04489,0.10892,0.17,0.27515,0.46091,0.67532,0.80324,0.9088,0.99988,1.0637,1.3091,1.3297,1.0774,0.91201,0.84401,0.83914,0.52475,0.41326,0.19887,0.055844,-0.053444,-0.28387,-0.22073,-0.10949,-0.25615,-0.25266,-0.33925,-0.20017,-0.087773,-0.055064,-0.017809,-0.065907,0.044757,-0.066338,0.036433,-0.059303,-0.041481,0.14561,-0.034484,0.12409,-0.093891,-0.0071306,0.072351,-0.093213,-0.012587,0.20421,-0.017192,0.18767,0.0060561,0.038341,-0.0368,-0.048609,0.079313,0.081461,0.15006,0.069217,0.04562,-0.023623,-0.0047948,0.14349,0.23636,0.085488,0.047944,0.065647,0.047874,0.073624,0.28617,0.11599,0.30635,0.30413,0.34874,0.31216,0.15414,0.43579,0.36499,0.44802,0.38174,0.3205,0.47023,0.32671,0.55613,0.50916,0.39746,0.52022,0.34593,0.56052,0.58066,0.42495,0.5728,0.60154,0.61801,0.35345,0.64457,0.41218,0.54423,0.60541,0.58246,0.53695,0.41879,0.42169,0.44277,0.4376,0.47185,0.46659,0.38428,0.36302,0.37915,0.30879,0.30693,0.43298,0.3407,0.45777,0.24374,0.30526,0.30633,0.20453,0.38291,0.2065,0.15346,0.12481,0.12484,0.10083,0.2783,0.14317,0.25972,0.089945,0.23934,0.011328,0.13743,0.028968,0.036805,-0.006596,0.072113,0.11003,0.025726,-0.072614,-0.08945,0.044597,-0.074948,0.14364,0.17831,-0.079778,0.1909,0.053707,-0.044652,-0.080166,0.079086,-0.030599,0.00016318,0.071124,0.045531,0.045228,0.18114,0.099632,-0.11028,0.14561,0.15219,0.13592,0.13624,0.13026,-0.071869,-0.0099696,0.18482,0.080499,-0.012723,-0.055658,0.17497,-0.01404,0.017858,-0.098828,-0.035879,-0.010945,0.16083,-0.061861,0.057374,0.015184,-0.0079011,0.028047,-0.0034956,0.12791,-0.014947,-0.075489,-0.0070714,-0.024368,-0.011185,0.047382,0.04834,-0.044739,-0.097487,0.15242,0.18507,0.11435,-0.090214,0.065167,0.13225,-0.053869,0.0055417,-0.00033452,0.16738,0.04878,-0.085852,0.14143,0.20314,-0.058102,-0.086467,0.13219,0.14554,0.16792,-0.062484,0.099088,0.1132,-0.073592,-0.068592,0.17255,-0.028184,0.076985,0.033378,0.062053,-0.064745,-0.021999,0.077516,0.036795,0.20108,0.21954,-0.055104,0.0092879,0.12266,0.096409,0.086863,0.19846,0.018019,0.27067,0.19219,0.018408,0.124,0.22592,0.11672,0.32623,0.10941,0.16798,0.35765,0.21422,0.30311,0.3144,0.3857,0.30621,0.40618,0.2703,0.27017,0.41268,0.33978,0.24145,0.44719,0.43755,0.36961,0.34639,0.18256,0.43269,0.36729,0.37984,0.17695,0.39803,0.37917,0.27757,0.34962,0.32879,0.23663,0.069469,0.21287,0.25156,0.070643,0.043238,0.25299,0.13127,-0.033926,0.22602,0.0069123,0.10392,-0.044825,0.15741,0.17095,-0.064997,-0.042567,0.010274,0.060096,-0.044403,-0.049101,0.10318,0.12599,-0.15571,0.06397,-0.029711,0.065235,-0.23347,-0.14796,-0.20528,-0.069619,-0.18659,0.077945,-0.080987,0.23578,0.16167,0.55301,0.55289,0.70411,0.78989,1.0325,1.1144,1.2794,1.0968,1.1871,1.084,1.0045,0.74384,0.41297,0.19753,0.17909,0.09586,-0.04215,-0.12119,-0.32271,-0.08265,-0.11182,-0.10449,-0.22212,-0.00058055,-0.1952,-0.14528,-0.090065,-0.13013,0.077558,0.17391,-0.073818,-0.046591,0.03001,0.10397,-0.018048,-0.044739,0.20081,0.043423,-0.0026834,0.043098,-0.0018064,-0.027285,0.15752,0.17572,0.17776,0.026867,0.10569,0.021439,0.23527,0.13494,-0.030256,0.038065,0.14989,0.12532,0.14117,0.21922,0.27928,0.052379,0.18418,0.29427,0.30076,0.27203,0.31423,0.16566,0.17521,0.20655,0.26277,0.23607,0.26917,0.34932,0.47906,0.21398,0.46972,0.33753,0.25622,0.28525,0.2741,0.54339,0.2875,0.57233,0.39011,0.54286,0.40914,0.58744,0.403,0.42122,0.40513,0.46697,0.39818,0.47169,0.48593,0.35656,0.37484,0.35276,0.53668,0.54096,0.42782,0.51245,0.35326,0.39174,0.52916,0.50441,0.4663,0.4167,0.31112,0.44662,0.16114,0.35368,0.31292,0.11046,0.20718,0.15072,0.2247,0.23028,0.23058,0.21891,0.0037865,0.16621,0.19793,0.13008,0.13001,0.11178,0.038833,-0.05739,0.15054,0.043246,0.074234,0.038003,-0.11089,0.018482,0.049425,0.068332,0.064777,0.058271,0.15163,-0.11075,-0.085869,0.11175,0.14726,-0.046457,0.061171,0.077097,0.088237,-0.015265,-0.014725,-0.06128,-0.063098,0.11971,0.091445,0.0090968,0.093368,0.10859,0.10563,0.019958,-0.052893,-0.012821,0.080892,-0.13199,-0.1525,0.01224,-0.042012,0.044059,-0.10657,-0.11558,-0.13768,-0.14257,-0.11688,-0.061801,0.069961,-0.078032,-0.041834,-0.089828,0.035382,0.017792,-0.15188,0.055065,-0.080306,-0.08742,0.073826,0.034477,-0.00031272,-0.042663,0.054511,-0.065541,-0.12359,-0.041992,0.088595,0.054773,-0.10727,0.07292,0.12132,-0.092876,-0.094573,-0.061175,0.024073,0.11472,-0.082662,-0.13798,0.032568,0.097238,-0.0083566,0.10076,-0.075549,-0.097728,-0.0032588,0.044623,-0.099559,-0.07532,-0.09628,0.10423,-0.031863,0.087526,-0.065135,-0.047487,-0.085374,-0.13539,0.14825,0.021284,0.092978,0.034211,-0.022085,0.18931,0.16602,0.15572,0.15031,0.045401,0.039705,0.20897,0.18602,0.12201,0.26478,0.18714,0.20973,0.26834,0.23585,0.33068,0.37219,0.098185,0.29303,0.2579,0.14418,0.17404,0.1666,0.32567,0.16369,0.16896,0.14141,0.25284,0.10832,0.2268,0.20181,0.29294,0.20254,0.29536,0.20505,0.18205,0.01576,0.11835,-0.012207,0.16848,0.070085,0.085412,0.078976,-0.062965,-0.095471,0.14639,0.025734,-0.052092,-0.13103,-0.072382,0.040088,-0.15346,-0.092971,0.061177,-0.00056274,0.060482,0.0069779,-0.17137,0.093186,-0.087816,-0.018356,-0.01014,-0.17799,-0.016262,-0.21457,-0.03548,-0.1841,-0.16543,-0.049914,-0.013487,-0.23758,-0.092426,0.10395,0.35191,0.44682,0.58166,0.5916,0.90232,1.0319,1.0996,1.1712,1.0404,0.89561,0.79083,0.62985,0.70823,0.31031,0.13274,0.17929,-0.22939,-0.28265,-0.27829,-0.32957,-0.25488,-0.24185,-0.23825,-0.36872,-0.28803,-0.17921,-0.10968,-0.1336,-0.22308,-0.29004,-0.013068,0.023176,-0.23157,0.014819,-0.14515,-0.14497,-0.19756,-0.15512,-0.00025267,-0.052069,-0.1617,0.01651,0.07372,-0.13056,-0.073028,-0.034813,0.026052,0.014165,-0.051511,-0.17238,0.022039,0.097856,-0.11464,0.04679,0.075179,-0.034321,-0.017098,-0.12493,0.1249,-0.04655,0.16368,0.12697,0.17675,0.083792,0.045045,0.062237,0.22029,0.17525,0.23474,0.052093,0.017767,0.093724,0.22857,0.18769,0.26185,0.25228,0.18824,0.38343,0.42517,0.14833,0.37456,0.39228,0.30242,0.34057,0.36103,0.37661,0.41166,0.33244,0.47736,0.21919,0.46424,0.2258,0.48547,0.41515,0.3809,0.3658,0.22463,0.32468,0.46558,0.27886,0.4144,0.3246,0.39655,0.36541,0.27599,0.31641,0.19325,0.30445,0.17762,0.26267,0.25287,0.25403,0.25025,0.13984,0.18247,0.21873,0.024173,0.053825,0.019269,0.08904,0.1316,-0.03106,0.12061,-0.13586,-0.062636,-0.011592,-0.12313,-0.05118,-0.047583,0.032224,0.046077,-0.04627,-0.022844,-0.14027,-0.064682,-0.17749,0.038405,-0.10547,0.015988,-0.13397,0.021837,-0.11542,-0.11301,-0.037105,-0.057304,-0.062819,-0.13182,-0.23801,0.01612,-0.14996,-0.24577,-0.096347,-0.16714,-0.17474,-0.25505,-0.084316,-0.18918,-0.20588,0.025717,-0.079753,-0.17,-0.091533,-0.05755,-0.034876,-0.14636,-0.13285,-0.024708,-0.15188,-0.0035975,-0.16044,-0.10882,-0.16621,0.017422,-0.020885,-0.21006,-0.095851,0.029071,-0.14097,-0.09514,-0.096249,-0.10549,-0.13143,-0.085747,-0.15604,0.033275,-0.19798,-0.23031,-0.24895,-0.088068,-0.23879,-0.12156,-0.093697,-0.15893,-0.091464,-0.25123,-0.094168,-0.11689,-0.0044435,-0.097497,-0.23965,-0.12764,0.022785,-0.17037,-0.17284,0.045919,-0.21454,-0.12129,-0.091021,-0.092353,0.037509,-0.23672,-0.018978,-0.12988,-0.15107,-0.076105,-0.083938,-0.23525,-0.035849,-0.12761,-0.026423,-0.060401,-0.1053,-0.034579,-0.007658,-0.11964,-0.061406,0.069309,-0.10738,-0.1946,0.068234,-0.10751,-0.13763,0.0035796,-0.030144,0.017672,-0.06289,-0.044889,0.049947,0.14109,0.048746,0.098245,0.18405,0.10212,0.04613,0.30007,0.21864,0.31341,0.10708,0.080373,0.2554,0.14202,0.35452,0.27739,0.18681,0.090199,0.23331,0.26622,0.090672,0.24614,0.25152,0.26027,0.02145,-0.009922,0.036646,0.165,-0.075942,-0.011845,-0.01541,-0.1196,0.11939,0.13643,0.11628,0.11343,0.012638,0.082148,-0.14051,0.084263,-0.13764,-0.14235,-0.14738,-0.032225,0.065089,-0.15833,-0.072891,-0.025292,0.037563,-0.13402,-0.21395,-0.21707,-0.13076,-0.17151,-0.23174,-0.11039,-0.062061,-0.15873,-0.3774,-0.10971,-0.30299,-0.17757,-0.07816,-0.23115,0.0036244,0.12032,0.13695,0.37497,0.32128,0.74413,0.86007,0.92449,1.1373,1.0351,1.1914,1.1735,0.96042,0.77025,0.56656,0.43195,0.36545,0.24658,-0.082889,-0.072557,-0.31118,-0.19468,-0.48518,-0.41903,-0.50158,-0.47986,-0.46856,-0.32766,-0.2917,-0.34776,-0.29259,-0.23555,-0.075283,-0.22181,-0.10966,-0.011688,0.02171,-0.045334,-0.12979,-0.0209,-0.19921,-0.19298,0.0028949,-0.18079,-0.1952,-0.078369,-0.078227,-0.046897,0.0411,0.010579,0.046788,0.0262,0.086018,-0.11111,-0.13225,0.056779,-0.15131,-0.073162,0.12305,-0.0048926,0.030835,-0.095832,0.15286,0.10705,0.13306,0.15192,0.014718,0.012127,0.21413,0.16454,0.051263,0.29088,0.18739,0.27507,0.11326,0.15306,0.12726,0.31894,0.27066,0.14878,0.25139,0.44892,0.44133,0.29756,0.3142,0.24952,0.30548,0.3104,0.31792,0.38503,0.47657,0.27267,0.39295,0.40873,0.28414,0.52826,0.25449,0.34861,0.39793,0.4537,0.26851,0.40408,0.36117,0.471,0.34063,0.4373,0.17315,0.1627,0.19402,0.36544,0.31876,0.27749,0.28784,0.15194,0.18,0.28468,0.12424,0.10697,0.042489,0.19627,0.22532,0.043743,0.19367,0.064907,0.14226,-0.025273,-0.089804,-0.075955,0.15341,0.12388,0.025574,-0.071642,0.0057771,-0.022635,-0.11753,-0.18539,-0.16366,0.082174,-0.1749,-0.064385,-0.052344,0.071657,-0.087374,0.063275,-0.14691,0.059592,-0.19272,-0.14303,-0.059212,-0.1837,-0.18765,0.035122,-0.12309,-0.16674,-0.056992,0.022263,0.077814,-0.056931,-0.14079,-0.017048,0.047537,-0.21675,-0.21621,-0.06242,0.069484,-0.11413,0.06154,-0.15342,0.066141,-0.12058,0.050475,-0.10233,0.041418,0.047849,-0.060752,0.03125,-0.075829,-0.1103,-0.12023,-0.021064,-0.075301,0.042549,-0.15506,-0.10456,0.064355,-0.095411,0.056698,0.039851,0.042554,-0.016183,-0.11355,0.091932,0.048583,-0.18076,-0.0076654,-0.074238,0.0076994,0.08003,-0.18717,0.079967,-0.020559,-0.14322,-0.019094,-0.15365,-0.16921,0.055897,-0.062722,-0.11696,-0.16523,0.093697,-0.097687,0.054406,-0.047956,-0.16622,-0.1125,-0.079993,0.015163,0.11802,-0.01272,-0.039401,-0.043896,0.099493,0.10986,-0.12777,-0.10267,0.064478,0.11659,0.084307,0.073055,-0.087488,-0.071703,-0.023699,0.16922,0.14362,-0.035984,-0.045403,0.18002,-0.018172,0.098449,0.09179,0.067775,0.0057126,0.20352,0.22262,0.083478,0.291,0.27331,0.096671,0.31208,0.22348,0.3706,0.24148,0.1359,0.38134,0.42721,0.23133,0.2206,0.23699,0.337,0.37731,0.30471,0.3262,0.36269,0.36173,0.091264,0.24586,0.1864,0.28904,0.24608,0.093238,0.099611,0.16342,0.13402,0.20463,0.13132,0.068296,0.20178,0.025145,-0.036119,-0.042979,-0.013116,0.071073,0.087747,0.092645,-0.12115,0.068734,0.12161,-0.027757,0.00089836,0.10235,0.042417,-0.10814,0.13194,-0.060015,-0.059537,-0.10144,0.079069,-0.20993,-0.15939,-0.16665,-0.08607,-0.10878,-0.10441,-0.041662,-0.039618,-0.10046,-0.092091,0.22385,0.43502,0.35876,0.51179,0.72929,0.89581,1.1777,1.058,1.1018,1.1732,1.1226,1.0946,0.83247,0.77919,0.37641,0.39431,0.049563,0.18322,-0.10182,-0.038676,-0.06521,-0.34046,-0.34359,-0.32864,-0.29499,-0.070756,-0.1009,-0.028938,-0.14096,0.099434,0.10861,-0.043937,0.048797,-0.029132,-0.056722,0.13418,0.069684,-0.064742,0.042759,0.015454,0.080248,0.025551,0.12522,0.18432,-0.058789,-0.029126,0.19658,0.03698,0.18106,0.050828,0.14866,-0.010368,0.059967,0.038875,-0.0087152,0.043241,0.022137,0.27073,0.23066,0.33613,0.070282,0.24197,0.11334,0.14587,0.15257,0.25477,0.35749,0.25032,0.3865,0.36189,0.40531,0.44746,0.4486,0.36604,0.30448,0.39324,0.38846,0.55861,0.5019,0.37358,0.52902,0.59485,0.5403,0.38094,0.39273,0.59447,0.3692,0.57548,0.43623,0.65612,0.40013,0.49045,0.47997,0.40379,0.5368,0.5902,0.52443,0.55373,0.50526,0.34654,0.54972,0.4957,0.37232,0.36611,0.3341,0.41924,0.28009,0.48885,0.29142,0.23689,0.22338,0.23206,0.36608,0.21115,0.1566,0.24799,0.28687,0.14631,0.10018,0.046005,0.12275,0.28021,0.17005,0.23308,-0.014628,0.11685,0.16338,0.028253,0.18784,0.04572,-0.0083102,0.19574,0.12205,0.15997,-0.057509,0.123,-0.043218,0.078263,-0.00068573,0.077587,-0.046197,-0.086558,-0.046117,0.043425,-0.057077,0.1737,0.11612,0.14722,0.13468,-0.060755,-0.055862,-0.03144,0.084156,0.0024444,-0.027481,-0.071446,0.15472,0.14091,-0.070013,0.01033,0.1081,0.19112,-0.087107,0.09147,0.13575,0.046542,-0.00062668,0.1282,0.067977,-0.044775,0.13371,-0.072189,-0.056626,-0.0087518,0.17166,0.17861,0.010719,-0.072645,0.11601,0.11951,0.1793,0.037349,0.067248,0.16961,0.053371,0.016084,0.079819,0.09039,0.07281,-0.044156,-0.081098,0.028212,0.040868,0.21243,-0.080806,0.028256,-0.034951,-0.067783,-0.054375,0.0049804,-0.040935,0.02878,0.19379,0.11205,-0.012425,0.1489,-0.0061138,0.030416,-0.0012178,0.042176,0.19246,0.21032,-0.029513,-0.053194,-0.053914,0.0034087,0.22626,0.073649,0.17265,0.11001,0.046498,0.10038,0.24228,0.11318,0.01692,0.29083,0.26918,0.16601,0.12962,0.3313,0.20108,0.36483,0.31135,0.14113,0.15103,0.33133,0.16663,0.31142,0.26093,0.42851,0.4882,0.38715,0.22969,0.25968,0.31631,0.4159,0.36737,0.42618,0.26292,0.39633,0.44485,0.28066,0.17055,0.22728,0.28688,0.22897,0.32686,0.27715,0.066449,0.23479,0.050081,0.17805,0.22317,0.13165,0.073506,0.048759,0.0018698,0.049648,-0.0095775,0.141,0.092437,0.22503,-0.061394,0.043789,0.034168,0.10341,-0.059725,0.022792,-0.033263,0.081081,0.11957,0.12306,0.10833,-0.042184,-0.057,-0.0055608,-0.12322,-0.18701,-0.12865,0.019508,-0.080347,0.04331,0.10823,0.25036,0.14782,0.39001,0.47983,0.73046,0.88563,1.1597,0.9935,1.1724,1.2586,1.2861,0.96188,0.8791,0.72738,0.5356,0.44431,0.33194,0.15454,-0.1869,-0.14641,-0.054444,-0.35377,-0.28394,-0.28701,-0.30164,-0.22151,-0.25811,-0.12686,-0.033439,0.011177,0.091366,0.086598,-0.065515,0.058654,-0.11479,0.02506,0.03154,-0.039809,-0.073797,0.18423,0.037166,-0.069046,0.019692,0.19527,0.19253,0.17022,-0.066594,-0.026218,0.19448,0.16179,0.028024,-0.0051174,0.20201,0.13121,0.025003,0.15105,0.0042398,0.0017181,0.2454,0.14634,0.10958,0.064601,0.034524,0.059073,0.12656,0.076044,0.33165,0.20644,0.2585,0.39678,0.33665,0.17526,0.21055,0.39733,0.47549,0.42417,0.2814,0.23209,0.4282,0.45693,0.36692,0.43265,0.53876,0.36134,0.44934,0.54597,0.49989,0.51183,0.55509,0.46101,0.35528,0.37904,0.35687,0.36942,0.35874,0.41188,0.59196,0.36149,0.37399,0.36427,0.44511,0.38319,0.48398,0.45366,0.26349,0.31873,0.35022,0.2787,0.37456,0.21144,0.34772,0.33731,0.092032,0.077161,0.27967,0.051092,0.1418,0.036723,0.020179,0.090324,0.13287,0.022033,0.23883,0.084321,0.052793,0.10152,0.12631,-0.027962,0.14256,0.023766,-0.094552,0.051303,0.16431,-0.12673,0.10577,0.028969,-0.11262,-0.092301,0.1272,-0.028897,0.018026,0.12006,-0.01221,0.025942,-0.0681,-0.047771,-0.010306,-0.038082,-0.12178,0.053072,0.011686,-0.1393,-0.062264,-0.11512,-0.02124,0.11045,-0.15587,-0.13435,0.064867,0.11768,-0.063334,-0.14061,-0.11113,-0.042159,0.033936,-0.12097,-0.061027,0.033332,0.020627,0.1179,0.092459,0.11264,-0.09526,0.092333,-0.11083,-0.11019,0.053416,0.038152,-0.055567,0.049277,0.057255,0.015116,-0.11582,-0.039308,-0.14176,-0.044327,-0.075662,-0.036753,-0.060231,-0.032235,0.074246,-0.032041,0.044158,0.088167,0.12635,0.1121,-0.12662,-0.12678,-0.12025,-0.14694,0.052261,-0.068311,-0.020495,0.031344,0.12361,0.029709,-0.13231,-0.12819,-0.064468,0.0038871,0.085992,-0.10813,0.056521,-0.11941,-0.079551,0.04008,-0.12543,0.10846,-0.12353,-0.040297,0.088126,0.020075,0.09025,0.12751,0.013721,0.056421,0.14857,0.010809,0.032742,0.066636,0.15255,0.16018,0.22541,0.25299,0.083815,0.20316,0.22203,0.20724,0.12067,0.13487,0.29772,0.21854,0.37198,0.11532,0.304,0.29634,0.12302,0.28026,0.32415,0.36765,0.13107,0.15508,0.25538,0.099974,0.19836,0.097132,0.10305,0.1543,0.05762,0.17647,0.039728,0.040925,0.10162,0.21097,0.0040787,0.1868,-0.059662,-0.027568,0.1223,-0.091268,-0.020538,0.11137,-0.013355,0.087191,0.11098,-0.061229,-0.070964,-0.1229,-0.014186,0.046196,-0.097895,-0.11895,-0.12887,0.0024912,-0.026451,-0.15465,-0.096869,-0.25134,-0.27686,-0.10891,-0.12887,-0.13044,-0.33708,-0.24529,-0.077009,-0.26557,-0.17481,-0.026054,0.13344,0.20487,0.2473,0.60731,0.63924,0.72166,1.0167,1.0458,1.1445,1.2171,1.1208,0.83933,0.76729,0.69819,0.39384,0.12973,0.07678,-0.074107,-0.28055,-0.25691,-0.41011,-0.43905,-0.40931,-0.30111,-0.31717,-0.28634,-0.40259,-0.14511,-0.322,-0.094203,-0.043164,-0.17488,-0.1929,-0.10571,-0.19379,-0.076242,-0.11497,-0.15137,0.011856,-0.087612,-0.22274,0.035512,-0.0957,-0.057918,-0.15624,-0.17658,-0.06564,-0.062662,-0.1151,-0.22591,-0.10707,-0.10138,-0.081587,-0.10064,-0.17229,-0.12032,0.066979,-0.094285,-0.12258,-0.13604,-0.099522,-0.081534,0.044085,0.10207,0.078198,0.072948,-0.018422,0.08612,0.088385,0.07074,0.17606,0.19274,0.24181,0.16748,0.2347,0.23372,0.33357,0.14341,0.24652,0.3145,0.25243,0.27557,0.42682,0.38176,0.42317,0.39529,0.42315,0.35788,0.31353,0.20106,0.36358,0.49028,0.24884,0.32683,0.464,0.34872,0.2687,0.20314,0.24907,0.41172,0.2553,0.27076,0.42019,0.42773,0.33879,0.31229,0.39567,0.27673,0.37174,0.25386,0.16767,0.14152,0.23246,0.21973,0.02153,0.083801,0.068906,0.052807,0.22348,0.15592,0.15808,0.011318,-0.053772,-0.055744,-0.14749,-0.012919,0.0047019,0.06872,0.087874,0.066444,-0.13897,-0.10414,0.059305,-0.14403,-0.094538,0.03803,-0.20038,-1.8088e-05,-0.097042,0.01486,-0.19708,-0.053894,-0.20962,-0.20352,-0.14951,-0.24151,-0.19733,-0.24727,0.013159,-0.21286,-0.14627,-0.20598,-0.080704,-0.072118,-0.0029776,-0.11193,-0.14115,-0.066656,-0.242,-0.20288,-0.14313,-0.0097657,-0.15697,-0.19844,-0.044194,-0.20829,-0.20485,-0.26353,-0.26788,-0.2404,-0.24526,-0.080536,-0.26241,-0.2463,-0.18389,-0.20205,-0.25637,-0.1528,-0.071545,-0.051856,-0.15873,-0.15263,-0.020918,-0.23046,0.01343,-0.058378,-0.074592,-0.0080149,-0.21635,-0.19862,-0.054205,0.004771,-0.10868,-0.081367,0.021486,-0.023299,-0.24868,-0.21681,-0.26921,-0.071398,-0.1121,-0.15263,-0.13132,-0.16197,-0.102,-0.19915,-0.13764,-0.1216,-0.22992,-0.074472,0.014487,-0.25198,-0.13426,-0.17272,-0.06496,-0.066869,0.024392,-0.018534,-0.19592,0.008941,-0.16949,-0.16593,-0.24815,-0.22674,-0.20683,0.012919,0.00081337,-0.0023,-0.22427,-0.070702,-0.084624,-0.076186,-0.088423,0.07412,-0.15633,-0.080189,-0.055295,-0.024163,-0.055756,0.064618,0.029759,-0.042092,-0.10962,-0.083487,0.02334,0.016656,0.11685,0.1274,0.067803,0.097421,0.2844,0.12581,0.055862,0.32003,0.34082,0.06347,0.18159,0.074666,0.34012,0.3446,0.2737,0.19444,0.21795,0.03627,0.21533,0.26435,0.092078,0.2201,0.055977,-0.028179,0.11679,0.046159,-0.048417,-0.090806,0.15637,0.012393,0.042148,-0.13692,0.052553,-0.17066,0.085136,-0.13353,0.071727,-0.11144,-0.038689,-0.048338,-0.16608,-0.032734,0.040029,-0.0082736,-0.073495,-0.18364,0.02917,-0.049847,-0.13944,-0.014835,-0.074882,-0.26798,-0.29673,-0.1617,-0.27312,-0.2187,-0.10632,-0.19476,-0.22552,-0.21237,-0.18804,-0.13286,-0.16924,0.11327,0.11267,0.32161,0.543,0.56953,0.66975,0.86218,0.967,0.96953,1.061,1.0103,0.94581,0.81412,0.60538,0.32408,0.17564,0.084543,0.11014,-0.21201,-0.24424,-0.37023,-0.33647,-0.2437,-0.4278,-0.3707,-0.24576,-0.3062,-0.066193,-0.28945,-0.12339,-0.25381,-0.09657,-0.052524,-0.19158,-0.13514,-0.081568,-0.015332,0.073877,0.019985,-0.1153,0.00041382,0.035968,-0.13497,0.06217,-0.14504,-0.090657,-0.0017379,0.035154,-0.092596,-0.0032419,0.12701,-3.3685e-05,-0.005516,-0.11379,-0.016797,0.029307,0.078237,-0.020261,0.10695,0.1647,0.0686,0.07316,0.13896,0.095666,0.21294,0.27535,0.096519,0.15017,0.11491,0.096993,0.23185,0.24737,0.25496,0.3303,0.23809,0.28209,0.33738,0.17558,0.27316,0.19025,0.49587,0.21744,0.49747,0.47511,0.48329,0.53186,0.49376,0.27023,0.40702,0.45217,0.50419,0.34311,0.46988,0.35741,0.34932,0.41241,0.51548,0.35331,0.48535,0.37538,0.36339,0.28582,0.46892,0.39364,0.34063,0.21115,0.16676,0.30928,0.33134,0.1488,0.11735,0.17511,0.13636,0.22916,0.022896,0.067727,0.21931,0.16095,0.085097,0.15442,0.037793,0.19161,0.003423,0.15365,0.16959,0.16603,0.10703,0.055892,-0.048685,-0.044197,-0.00049395,-0.11154,-0.12913,0.049608,0.041102,-0.048287,-0.082958,0.073741,-0.12953,-0.041687,-0.18521,0.042642,-0.10783,-0.017142,-0.065702,-0.00059965,-0.058391,-0.030809,-0.17484,-0.020061,0.087859,0.073233,-0.15055,-0.057384,-0.10952,0.068605,-0.047685,0.015628,0.014839,0.039825,-0.012098,-0.0068586,0.033084,-0.03137,0.08317,0.080978,0.047476,-0.079421,0.052174,-0.079522,-0.13189,-0.1654,-0.025468,-0.11576,0.11545,-0.02074,0.082522,-0.1408,-0.0056695,-0.11551,-0.1685,0.013738,-0.08816,-0.051865,-0.13378,-0.052945,-0.14368,-0.096013,0.047039,-0.030183,-0.050758,-0.14807,0.0991,0.013809,-0.1478,-0.086716,0.0043538,-0.13352,-0.016841,0.0324,-0.021339,0.020342,-0.073762,0.078112,0.12314,0.048612,0.089399,0.10185,-0.082677,0.13119,-0.020606,-0.018068,0.011306,-0.023954,-0.11398,-0.094853,-0.024238,0.030975,0.082275,0.07311,-0.0020674,-0.02004,0.09666,0.089525,0.024962,-0.022771,0.12702,-0.041465,-0.019981,0.18196,-0.00023554,0.082722,0.20272,0.11767,0.24445,0.011518,0.30606,0.28266,0.19245,0.31279,0.10642,0.22297,0.16402,0.24221,0.25256,0.30942,0.29082,0.37129,0.19763,0.17557,0.31541,0.44565,0.34258,0.36959,0.14982,0.39538,0.36954,0.32355,0.21159,0.19724,0.24913,0.28759,0.099369,0.24054,0.2852,0.056664,0.12562,0.24115,0.21282,-0.0020675,0.12158,0.08215,0.14167,0.13759,0.05623,0.042691,0.022686,0.055745,0.041614,0.011033,0.096925,0.08834,0.0096354,0.11857,0.15766,-0.13241,0.042225,0.018389,-0.11789,-0.086357,0.0565,-0.15938,-0.2522,-0.096134,-0.099422,-0.13557,-0.072681,0.0022777,0.09118,0.23252,0.39796,0.33277,0.53935,0.92911,0.8743,1.1278,1.1039,1.2268,1.2697,1.0521,0.96772,0.92565,0.55717,0.3688,0.36931,0.23359,0.058631,-0.030837,-0.12436,-0.16015,-0.26026,-0.25149,-0.32745,-0.30561,-0.10646,-0.099354,0.011093,0.032658,-0.070179,0.019863,-0.065942,0.18138,-0.037953,-0.045544,-0.016141,0.1197,0.20978,0.062939,0.17386,0.062691,-0.056003,0.0044003,-0.028211,0.20024,0.153,0.025815,0.058783,0.20708,0.10172,0.21507,0.10538,0.086492,0.017656,0.056031,0.14268,0.015652,0.26023,0.24892,0.18232,0.064524,0.12933,0.21829,0.32754,0.32991,0.12468,0.15539,0.29031,0.36377,0.23747,0.3631,0.30395,0.40114,0.38951,0.50038,0.31916,0.34677,0.43516,0.54335,0.47937,0.36304,0.59067,0.5552,0.62813,0.40787,0.51052,0.52099,0.40901,0.39817,0.54761,0.5073,0.40538,0.61569,0.43332,0.48451,0.49493,0.49927,0.33798,0.4223,0.41079,0.31147,0.46649,0.38655,0.24607,0.43435,0.34795,0.40895,0.25387,0.18995,0.36604,0.12943,0.39251,0.31517,0.19552,0.16428,0.33445,0.24286,0.10731,0.14586,0.12164,0.24979,0.28411,0.21173,-0.019522,0.10612,-0.031686,0.12897,0.023526,-0.00013973,0.008706,0.18299,0.015286,0.15635,-0.02172,0.20605,0.13484,0.077098,0.1272,0.14485,0.03362,-0.043268,0.14571,-0.068544,-0.026296,0.054746,0.13417,-0.065647,-0.031415,-0.045915,-0.084797,0.18666,0.030324,0.042039,0.10394,0.0061529,0.11195,0.10813,0.18827,-0.092511,0.14366,0.14889,-0.023838,0.14442,0.19375,-0.038294,-0.041541,0.115,0.1599,-0.0087788,0.063946,-0.068881,0.002413,0.023959,0.0054711,0.12508,0.011328,0.10551,-0.0080327,-0.0081411,-0.045125,0.061854,0.14086,-0.0035531,0.011714,0.16464,0.034338,0.13725,0.087076,0.10373,0.028057,0.010412,-0.035041,0.079411,-0.076463,0.058582,0.098474,0.11214,0.21175,0.0052969,-0.050483,0.17659,0.012788,0.17008,0.024029,-0.038826,0.079058,0.12375,0.0049116,0.039758,0.0043134,0.11204,-0.066278,-0.038743,0.22125,0.092202,0.035708,0.066136,-0.02799,0.22453,0.22295,0.1317,0.064743,0.25256,0.059614,0.18446,0.057433,0.12002,0.12874,0.28552,0.23437,0.20945,0.15555,0.16593,0.33201,0.20147,0.1798,0.23331,0.47115,0.40761,0.41282,0.30696,0.321,0.30301,0.46339,0.2277,0.36663,0.47036,0.28106,0.38321,0.21349,0.36112,0.34467,0.39458,0.33916,0.34644,0.10158,0.26431,0.12112,0.045079,0.20533,0.055397,0.21831,0.012019,0.2084,0.034303,0.088491,0.19071,-0.03908,0.023316,0.080585,0.039546,0.056582,0.12614,0.11179,-0.072704,-0.061569,0.10608,0.03102,0.018855,0.16388,0.089716,-0.12394,-0.024799,0.0048478,0.055541,-0.22024,-0.019763,-0.23093,-0.12238,-0.16747,0.073051,0.1339,0.23071,0.32474,0.60235,0.8552,0.74232,1.0973,1.0812,1.0408,1.0547,1.0164,1.0165,0.96819,0.75682,0.4261,0.4752,0.25964,-0.052993,-0.10487,-0.059334,-0.16663,-0.40341,-0.2709,-0.37052,-0.22466,-0.31488,-0.20108,-0.012515,-0.17061,0.021313,-0.036271,-0.020478,-0.020939,0.046548,0.045145,0.02372,-0.13776,-0.034779,-0.072315,0.03374,0.01552,-0.061189,0.13374,0.10639,-0.08798,-0.0984,-0.10598,0.034707,0.13413,-0.093132,0.0093471,-0.050677,0.054036,0.091694,0.072487,0.084886,0.16633,-0.016901,0.19729,0.071234,0.23631,0.26066,0.2499,0.069934,0.26448,0.26164,0.03493,0.33493,0.358,0.084595,0.30592,0.1614,0.14461,0.23068,0.32869,0.37634,0.43321,0.34878,0.38996,0.50023,0.30308,0.4538,0.53646,0.26405,0.54452,0.57023,0.55194,0.47558,0.55993,0.58206,0.44386,0.54587,0.35964,0.33414,0.39104,0.33248,0.50487,0.53776,0.49809,0.54286,0.56256,0.51845,0.42037,0.49246,0.41301,0.36725,0.19978,0.31509,0.40312,0.34194,0.23753,0.23322,0.21083,0.13633,0.18661,0.22567,0.14446,0.21294,0.061387,0.15351,0.10712,0.076665,0.05567,-0.00023908,-0.045844,0.060126,0.15854,0.012537,0.033265,-0.10139,-0.099633,-0.0061297,0.012673,-0.10072,-0.015853,-0.017938,0.0022073,-0.040057,-0.1611,-0.11611,-0.15898,-0.065301,-0.14583,-0.037061,0.087982,-0.067757,-0.17103,0.033351,0.050693,-0.16621,-0.12849,-0.022605,-0.1092,0.090909,0.0083891,-0.16615,-0.11311,-0.11831,-0.12357,-0.018651,0.05611,-0.045944,-0.022922,-0.0084736,0.043593,0.066555,-0.1073,0.10245,-0.11106,-0.18947,-0.12974,0.053516,-0.10336,-0.15731,-0.021755,-0.087383,-0.021143,-0.10241,-0.069043,-0.082954,-0.087861,0.047137,-0.17508,-0.16348,-0.11114,0.080809,-0.070082,-0.082919,0.038852,-0.04452,-0.18524,-0.18037,0.0063556,0.060087,-0.076457,-0.18026,-0.14574,-0.17063,-0.17419,-0.15126,-0.01315,0.028926,0.053658,-0.13624,0.037381,-0.18468,-0.0043682,-0.035502,-0.13325,0.088401,-0.077945,0.094271,0.0024366,0.11514,-0.17262,0.11135,0.0047831,0.11451,0.0099213,0.083123,-0.066398,0.014347,-0.16136,-0.068223,-0.030052,-0.11398,0.069096,-0.037418,-0.1403,-0.066101,0.15321,-0.092267,0.10116,0.15491,0.13468,-0.035319,0.1084,0.16387,-0.005948,0.022284,0.14861,0.18301,0.13419,0.091399,0.12477,0.17176,0.24615,0.19072,0.33356,0.24984,0.32957,0.19903,0.29599,0.38035,0.15213,0.2037,0.29369,0.12669,0.19226,0.19144,0.18989,0.048162,0.11463,0.14825,0.26163,0.23728,0.16892,0.16152,-0.038633,0.11462,0.1944,0.1518,0.12672,0.14751,-0.01655,-0.11908,0.080705,0.10079,-0.096426,0.079939,0.069255,-0.049164,-0.16291,0.099438,0.02054,-0.012155,-0.09928,0.061853,-0.063165,-0.13147,-0.19524,-0.19805,-0.12365,-0.22507,-0.094721,-0.30317,-0.30832,-0.074091,-0.198,-0.098867,-0.22862,-0.031946,-0.19452,-0.12692,0.076052,0.31275,0.42075,0.42602,0.70899,0.75478,1.089,1.1784,0.99494,1.0064,0.88821,0.87855,0.65942,0.44252,0.52361,0.14373,-0.051373,-0.16765,-0.24451,-0.26228,-0.34426,-0.36301,-0.43887,-0.30556,-0.32564,-0.43875,-0.14385,-0.21117,-0.094981,-0.062151,-0.1352,0.010108,0.020688,-0.057634,0.0071793,0.057851,-0.10833,0.037416,0.010016,-0.067991,0.069144,-0.055462,-0.21272,-0.18914,-0.0066707,-0.14615,-0.082834,-0.18852,-0.18974,-0.088853,-0.019803,0.079275,0.046305,0.12475,0.052088,0.12933,0.060971,-0.088973,-0.074596,-0.03552,-0.11291,0.12742,0.026577,0.033975,-0.044045,0.066128,0.15284,0.19622,0.043548,0.16278,0.19543,0.02516,0.2256,0.15809,0.12435,0.23113,0.23375,0.30007,0.25959,0.34005,0.23119,0.32029,0.44708,0.29144,0.23168,0.39507,0.33801,0.44899,0.49765,0.4635,0.52098,0.33599,0.30451,0.49173,0.40615,0.4037,0.50863,0.30954,0.49526,0.28294,0.47522,0.21427,0.25531,0.26754,0.2828,0.30423,0.17012,0.20831,0.10051,0.35831,0.076271,0.11785,0.12734,0.13017,0.010577,0.22028,0.023454,0.11507,-0.0046311,-0.04654,0.17946,0.12008,0.02509,0.093229,-0.010642,0.024452,0.019186,0.027646,-0.18216,-0.073677,-0.050772,-0.016675,-0.11733,0.033202,-0.12606,-0.22247,-0.094249,-0.027684,-0.24269,0.038181,-0.19398,-0.061453,-0.19609,-0.20629,-0.14504,0.026139,-0.25479,0.02318,-0.26559,-0.012557,-0.23015,-0.24896,-0.11161,-0.039109,-0.038624,-0.25612,-0.12279,-0.23069,0.028853,-0.20368,0.031964,-0.024284,-0.063741,-0.005099,0.029844,-0.14583,-0.22754,0.0094576,-0.26174,0.035078,-0.12254,-0.2471,-0.21626,-0.14176,-0.099213,0.023633,-0.0055472,-0.168,-0.0084385,-0.072106,-0.17751,-0.10541,-0.025878,-0.068697,-0.21163,-0.16536,0.035819,-0.13401,-0.091736,0.040413,-0.19553,-0.017314,0.0074894,-0.076697,0.029977,-0.076476,-0.22481,-0.016529,-0.12425,-0.10353,-0.19618,-0.031462,0.013888,-0.1496,-0.16393,-0.10938,-0.16386,-0.036175,0.035517,-0.0012758,0.010789,0.017492,-0.035484,-0.23382,-0.099709,-0.14432,-0.11213,0.018866,-0.23272,-0.064934,-0.20814,-0.14362,0.013533,-0.19997,0.051231,-0.21104,-0.11671,-0.025773,0.073653,-0.064642,0.077111,0.091999,-0.11554,-0.09328,-0.038283,0.0017651,-0.018235,0.1439,-0.083134,-0.082271,0.16551,0.204,0.1581,0.19414,0.20616,0.048855,0.20437,0.042053,0.13504,0.15179,0.069974,0.2427,0.34608,0.18503,0.34836,0.34302,0.3217,0.22855,0.32192,0.2173,0.22771,0.086895,0.16372,0.10926,0.054869,0.089571,0.14066,0.082591,0.11048,0.050874,-0.0068162,-0.050409,0.11365,0.023423,0.056892,0.037289,-0.1226,-0.098737,0.005233,0.038976,-0.086553,0.0055281,-0.12328,-0.18158,-0.19949,-0.21929,-0.072106,-0.10648,0.0065314,-0.0026225,-0.085484,-0.15637,-0.032976,-0.0074802,-0.26506,-0.3199,-0.1854,-0.3365,-0.33888,-0.23874,-0.24135,-0.33291,-0.033108,-0.22007,-0.13777,0.069684,0.34565,0.33966,0.57057,0.60016,0.7909,0.92947,1.2235,1.2116,0.98027,1.0098,0.99627,0.70086,0.53489,0.38272,0.092673,0.0033985,-0.089853,-0.30183,-0.12556,-0.44428,-0.1838,-0.20048,-0.17315,-0.14509,-0.085303,-0.16004,-0.11854,-0.098021,-0.19502,0.018903,-0.14456,-0.068557,0.0044887,-0.1567,-0.051543,-0.071355,-0.10226,-0.11515,0.073923,-0.16033,-0.16119,-0.11126,0.017001,-0.1319,-0.082215,-0.020846,0.067483,0.025666,-0.022731,0.15259,-0.0014911,0.12486,0.12598,-0.047676,-0.042198,-0.066295,0.0032323,-0.021564,0.1862,0.045635,0.24164,0.20177,0.13571,0.2309,0.16351,0.23377,0.2906,0.083931,0.066637,0.37118,0.25303,0.19554,0.25528,0.25847,0.3406,0.38354,0.35945,0.32985,0.42853,0.47529,0.37548,0.27385,0.3982,0.51561,0.31498,0.44039,0.33283,0.43389,0.28441,0.42133,0.29049,0.38628,0.43202,0.54371,0.31723,0.25277,0.28838,0.49401,0.44658,0.38165,0.38213,0.23058,0.1774,0.3294,0.21921,0.175,0.39235,0.36646,0.094246,0.34512,0.10242,0.1168,0.21112,0.11553,0.17824,0.048709,0.048856,0.14148,0.16774,0.066003,-0.068273,0.10133,0.01793,0.033338,0.11956,0.13267,0.070221,-0.14324,0.13765,0.041743,0.077953,-0.037195,-0.091182,-0.14616,-0.017748,0.022506,-0.097757,0.10325,-0.166,-0.070194,-0.035313,-0.12992,0.022944,-0.084539,0.10179,-0.047533,-0.13002,-0.14074,-0.15216,-0.13468,-0.065408,-0.077444,-0.095135,0.024939,0.013855,-0.019999,0.091713,-0.089034,-0.041613,-0.13228,0.018555,0.11021,0.073366,-0.078844,-0.076178,-0.010485,0.11527,-0.10609,-0.04222,-0.031691,-0.0032133,-0.040325,-0.10449,0.11981,0.10119,-0.1173,0.12756,-0.090825,0.019718,0.0719,0.047248,0.043048,0.089081,0.018676,0.11498,0.014638,-0.096901,0.082137,-0.10797,-0.11152,-0.033637,0.077716,0.062961,-0.14829,0.14219,0.13845,0.085344,0.017049,-0.0050153,0.097251,0.12357,0.1185,-0.073295,0.072748,0.012035,0.019722,-0.13945,0.077403,0.15381,0.13156,0.063399,0.13189,-0.13738,0.0083383,0.13974,0.14224,0.021868,0.17479,-0.090206,-0.0082378,0.098556,0.11528,-0.06775,0.045147,0.21503,0.025454,-0.045513,0.17881,-0.015526,0.25535,0.13613,0.18529,0.1775,0.31894,0.2142,0.10533,0.33977,0.32244,0.28781,0.29153,0.15373,0.31834,0.16185,0.37576,0.19896,0.17503,0.28509,0.22148,0.19801,0.13967,0.20446,0.34062,0.13457,0.33583,0.31417,0.091723,0.056,0.20006,0.086057,0.30375,0.13229,0.065638,0.13496,0.19306,0.19894,0.042902,0.042569,-0.026294,-0.070108,0.021441,0.064152,-0.072315,0.095631,-0.1038,0.10759,0.052941,0.095911,-0.11553,-0.09638,0.086776,-0.10189,-0.09458,-0.09393,-0.11456,-0.12393,-0.20591,-0.2408,-0.17367,-0.2496,-0.019199,-0.036616,-0.087776,-0.11089,0.18287,0.12372,0.36914,0.3747,0.49415,0.84323,0.99643,1.0188,1.2736,1.1913,1.0321,0.98401,1.0673,0.74927,0.68368,0.51677,0.35051,0.15496,-0.044255,-0.080184,-0.13501,-0.20101,-0.30312,-0.38621,-0.17043,-0.093091,-0.18565,-0.14612,-0.25218,-0.2232,-0.023275,-0.023281,-0.089522,-0.1125,0.12061,0.0067316,0.16403,0.14199,-0.013663,0.087828,0.1507,0.15878,0.093011,0.18792,-0.042451,-0.012611,-0.048533,0.042442,0.040636,-0.06898,0.016692,0.046574,0.20349,0.18171,0.031485,0.23953,0.24179,0.14144,0.18622,0.04023,0.13197,0.20214,0.017624,0.26725,0.23114,0.057134,0.20496,0.24014,0.28213,0.23268,0.18218,0.25862,0.35279,0.17072,0.41029,0.43923,0.25851,0.29759,0.44067,0.27563,0.47928,0.5681,0.36963,0.53426,0.54482,0.50759,0.52879,0.62151,0.51839,0.40302,0.47157,0.59483,0.49421,0.63614,0.61558,0.49343,0.54119,0.42493,0.31568,0.42666,0.33464,0.49626,0.54857,0.34902,0.34794,0.32103,0.48978,0.35386,0.43244,0.22666,0.17059,0.21522,0.33855,0.20659,0.36224,0.35859,0.36538,0.20967,0.26321,0.2887,0.082772,0.11168,0.033699,0.099666,0.18338,-0.010488,0.20694,-0.048474,0.001235,0.22896,0.13742,-0.044333,0.040862,0.086616,0.013402,-0.048931,0.16191,-0.012864,0.17049,-0.017636,0.081645,0.14893,0.14295,-0.079781,0.027394,-0.12119,0.030416,0.10464,0.11997,-0.06401,0.11863,0.10129,-0.054441,-0.037986,0.16458,0.041657,0.027271,-0.074062,-0.10827,-0.1046,-0.0041804,0.025128,-0.065583,-0.0057197,-0.10596,0.014527,0.023757,0.059562,0.069667,0.06365,0.072252,0.16609,-0.077393,0.041732,-0.025078,0.033064,-0.11197,-0.10218,0.047266,0.029363,0.12447,0.18108,0.15327,0.026556,-0.078728,0.020237,-0.0083664,-0.086002,-0.0045918,0.023612,-0.057923,0.14827,0.0077856,-0.089266,-0.085629,0.034993,0.12268,-0.072604,0.11542,0.059416,0.043797,-0.065781,0.083662,0.14928,0.023033,0.088271,0.065293,0.062558,0.079457,-0.042685,-0.047471,-0.054572,-0.025533,0.049534,0.063916,0.094401,-0.070976,0.034961,0.20039,0.11058,0.20778,0.029241,-0.050207,0.11527,0.05333,0.059535,0.1894,0.086104,-0.021351,0.26471,0.14444,0.013673,0.17487,0.14476,0.26378,0.25006,0.088993,0.1057,0.35311,0.11674,0.16461,0.19698,0.30158,0.2126,0.45628,0.30353,0.3782,0.26536,0.36389,0.38063,0.43656,0.4429,0.28344,0.47538,0.35187,0.27162,0.42853,0.34834,0.34694,0.19324,0.29388,0.15664,0.17355,0.32645,0.061782,0.037026,0.28927,0.18684,0.24951,0.035124,0.0040961,0.021528,0.20749,0.13165,0.22132,0.1493,0.14734,0.016032,-0.0043589,0.078367,0.088812,0.04663,0.072444,-0.085077,-0.05057,-0.077581,0.14773,0.022711,-0.0018079,-0.12091,0.069706,-0.21104,0.027646,-0.16808,0.0011754,-0.17412,-0.2069,0.010103,-0.079418,0.26697,0.20451,0.41033,0.50725,0.86606,0.95014,1.0201,1.1809,1.326,1.32,1.1345,1.0984,0.76387,0.81243,0.5537,0.45032,0.2738,0.11278,0.064417,-0.27934,-0.22413,-0.23085,-0.27458,-0.13119,-0.19263,-0.25807,-0.28515,-0.051092,0.013338,-0.19598,-0.039791,0.055944,0.064862,0.018047,-0.086293,0.13311,0.080413,0.066422,0.1543,0.055205,-0.055148,-0.074607,0.14312,0.01071,0.13293,0.18215,-0.054353,0.049295,0.14957,0.014385,0.19568,0.0099472,0.13607,-0.072255,0.090099,-0.033661,0.0084353,0.11091,0.030168,0.21897,0.17352,0.24436,0.17334,0.2351,0.28917,0.23395,0.12697,0.15356,0.23924,0.32763,0.32277,0.13145,0.38476,0.43268,0.32076,0.46603,0.3487,0.35625,0.35527,0.38589,0.52627,0.50685,0.54301,0.55208,0.42122,0.58974,0.31336,0.37236,0.54717,0.4694,0.43052,0.51511,0.4587,0.56641,0.44168,0.48707,0.4375,0.3703,0.535,0.54121,0.49476,0.44869,0.2964,0.2716,0.39429,0.50853,0.27353,0.37479,0.33859,0.45123,0.18053,0.32325,0.28061,0.3735,0.21898,0.36003,0.096817,0.31436,0.20265,0.21519,0.18462,-0.015393,0.14528,-0.044735,0.21613,0.2264,0.022744,-0.016137,0.18151,0.055289,-0.040285,0.045833,0.1681,0.11025,-0.082671,-0.083589,0.08169,0.058063,0.077141,0.017545,-0.046651,-0.12158,-0.061001,0.053365,-0.12238,-0.12556,0.10965,0.038207,-0.10543,-0.14184,-0.13088,0.011412,-0.16266,0.080857,-0.021894,-0.076083,-0.074187,0.049368,0.061131,-0.17979,-0.049751,-0.054776,-0.14976,-0.16103,0.043933,-0.030764,0.10378,-0.029116,0.053071,0.10958,-0.046152,0.00098175,-0.17286,-0.14502,-0.16452,-0.060166,0.10785,0.045958,-0.095918,-0.097471,0.058674,-0.037257,0.0088954,0.011919,0.041823,0.027097,-0.13289,-0.033051,-0.077726,-0.023943,0.063833,-0.071514,-0.074248,0.017679,-0.13425,-0.058753,0.011429,-0.053078,-0.16369,-0.047006,-0.10394,-0.019551,-0.0033755,0.092446,0.022432,0.036921,-0.0015665,-0.04752,-0.02368,0.12169,0.1158,-0.080424,-0.034872,0.06862,-0.13401,-0.006854,-0.038847,0.083418,0.04447,-0.098907,0.092277,0.10052,0.038257,-0.060536,-0.024686,-0.10342,0.084322,-0.12647,-0.02554,0.081803,-0.072727,0.053473,0.16512,-0.095653,0.18453,0.17091,0.14354,0.10045,0.16736,0.21268,0.10843,0.20098,0.18008,0.3114,0.13235,0.35141,0.2339,0.19474,0.32088,0.15621,0.27161,0.24705,0.24934,0.1453,0.21671,0.23137,0.24783,0.095404,0.12975,0.30948,0.20213,0.25238,0.17432,0.065894,0.044117,0.22486,0.12313,0.10048,0.078818,0.1855,0.15274,0.096639,0.1229,-0.07661,0.16246,0.071994,-0.12286,-0.14888,0.052157,0.068628,0.07254,0.04083,-0.16895,-0.15057,0.050578,0.021199,-0.18972,-0.098762,0.086046,-0.021777,-0.1098,-0.10564,-0.10743,-0.14642,-0.11117,-0.24129,-0.10447,-0.20807,-0.30759,-0.13135,-0.3257,-0.13126,0.081186,0.17178,0.21107,0.45018,0.40941,0.52723,0.86287,0.83621,1.1562,1.141,1.2285,1.1154,1.0072,0.7273,0.71549,0.40865,0.34863,0.046653,-0.019304,-0.061013,-0.077874,-0.317,-0.46313,-0.1958,-0.40947,-0.16785,-0.30826,-0.36299,-0.23216,-0.30974,-0.2133,-0.14596,-0.10015,0.022223,-0.077861,-0.11957,-0.033557,-0.12134,-0.16619,0.071885,-0.13804,-0.042447,-0.07616,-0.18853,-0.084259,-0.11987,0.0828,-0.11742,-0.12703,-0.017609,0.081391,-0.092529,-0.016494,0.075094,0.029074,-0.086361,-0.12247,0.15573,0.014051,0.10041,0.065018,-0.037388,0.18894,0.054113,0.20689,0.013234,0.25101,0.034608,0.016982,0.18562,0.086113,0.065335,0.2572,0.14064,0.33794,0.12781,0.30627,0.37151,0.25746,0.22277,0.27284,0.29993,0.39146,0.30438,0.3003,0.31039,0.33098,0.45373,0.38019,0.5041,0.51577,0.43758,0.40365,0.47623,0.42694,0.29029,0.50501,0.41231,0.26724,0.2312,0.35717,0.2738,0.35104,0.39902,0.19001,0.2356,0.14548,0.32659,0.23541,0.31139,0.25124,0.12363,0.22413,0.062649,0.19337,0.094712,0.25893,0.10353,0.082153,-0.036828,0.14278,-0.035825,0.010799,0.042761,-0.052443,-0.11035,0.1345,-0.094019,-0.021202,-0.12622,0.020597,-0.10737,0.084357,-0.052716,-0.088165,-0.020953,-0.10148,-0.010289,0.010171,-0.0011625,-0.0368,-0.20066,-0.20202,-0.0092039,-0.056523,-0.089518,-0.17579,0.011075,0.044535,-0.13641,-0.10657,-0.16227,-0.14295,-0.24597,-0.18435,-0.052886,-0.10263,-0.051006,-0.10843,-0.053231,-0.2527,-0.12992,-0.15845,0.038711,-0.23574,-0.15372,0.036889,0.0074492,-0.10425,-0.0055863,-0.19651,-0.048434,-0.0098699,-0.18953,-0.011115,-0.04891,-0.087382,0.0014637,-0.1163,-0.15282,-0.19586,0.039369,-0.20185,0.031076,-0.20572,-0.23664,-0.04209,-0.23153,-0.0001021,-0.18299,-0.0045459,-0.065377,-0.22229,-0.1769,-0.042534,-0.18453,-0.16104,-0.11686,-0.048351,-0.12545,-0.21973,-0.14708,0.047328,0.013721,0.050221,-0.1783,0.033034,-0.18266,-0.053635,-0.062025,-0.18205,0.0073605,-0.17561,-0.22616,0.038193,0.012569,-0.15641,-0.21664,0.049744,0.052623,0.023264,-0.0086021,-0.035574,-0.15977,0.0063532,0.0083559,0.07361,0.065666,-0.03721,-0.087318,-0.079977,0.11605,-0.049342,-0.0075248,-0.042267,0.0088944,-0.031286,0.20295,0.14583,0.023568,0.080955,0.26527,0.021212,0.12042,0.19442,0.28383,0.17798,0.32096,0.20336,0.14193,0.11376,0.15083,0.33746,0.17667,0.2023,0.15776,0.1784,0.30901,0.32816,0.28496,0.015802,0.25676,0.20197,0.18931,0.2416,0.13669,0.11636,-0.082621,-0.0067167,0.13985,-0.010781,-0.1404,0.033442,-0.087876,-0.031725,-0.044462,-0.14441,-0.036446,-0.025909,-0.094125,-0.083042,-0.0054768,0.019234,-0.20762,-0.021455,0.038789,-0.20347,-0.090091,-0.15171,0.024804,-0.089444,0.0035293,-0.28435,-0.28821,-0.099753,-0.18773,-0.17433,-0.12108,-0.22841,-0.31472,-0.17131,-0.16971,0.042152,-0.00056719,0.3543,0.34674,0.52466,0.81336,0.9104,1.0419,1.0068,1.0486,1.0048,0.9155,0.76044,0.56286,0.51788,0.43638,0.26603,-0.038249,-0.21603,-0.11038,-0.41286,-0.31418,-0.44855,-0.44319,-0.3857,-0.27101,-0.10448,-0.35148,-0.24962,-0.11779,-0.065351,-0.08958,-0.19565,-0.092897,0.0099073,-0.18636,-0.13893,-0.0060067,0.053466,-0.19494,-0.11322,-0.17234,-0.010355,-0.17614,-0.094359,0.071856,0.04918,-0.0104,-0.11501,-0.17127,-0.10635,0.089833,0.065001,0.059451,0.12873,0.061463,0.12029,-0.014213,0.071895,-0.0055117,-0.011564,0.021541,0.054612,-0.041239,-0.0029055,0.24601,0.21671,0.23286,0.28218,0.22818,0.22388,0.29451,0.15671,0.24028,0.23891,0.3411,0.1873,0.26662,0.4098,0.37012,0.46814,0.4571,0.42848,0.29421,0.25537,0.39681,0.51432,0.37312,0.40324,0.36816,0.33623,0.34551,0.30342,0.49928,0.46829,0.52114,0.52501,0.43179,0.26644,0.50573,0.49162,0.32069,0.34491,0.36023,0.17399,0.39844,0.34479,0.33936,0.27496,0.15231,0.36493,0.29084,0.22302,0.039838,0.10283,0.033438,-0.0010678,0.096716,0.2294,0.23787,0.017671,-0.014268,0.02286,0.1066,0.10601,0.066849,-0.060323,-0.025063,0.13881,0.14669,0.0055991,-0.10981,0.038818,-0.10348,-0.097961,0.020436,-0.063842,0.02358,-0.16525,-0.17963,0.014946,0.068433,0.074554,-0.11247,-0.062418,-0.05618,0.066057,-0.036523,-0.021329,0.040186,0.052433,0.04622,-0.10028,-0.077921,-0.15341,0.020656,-0.12104,-0.07966,0.033715,-0.10445,-0.17759,-0.13025,-0.16033,-0.043742,0.014841,0.049414,-0.013407,-0.037678,-0.029021,-0.19001,-0.11569,0.056163,0.058061,0.045696,-0.061527,-0.16363,-0.12435,-0.097139,-0.17242,0.05806,0.027952,0.058311,-0.15226,0.066738,0.089938,-0.14885,-0.12892,0.038316,-0.16263,-0.090364,-0.025821,0.053837,0.013635,0.066301,-0.092806,-0.066738,0.083652,-0.050222,0.065365,-0.15726,-0.063172,0.056949,-0.034482,-0.098238,-0.017218,0.12328,0.074443,0.10265,0.13099,0.083379,0.14161,0.041389,-0.1246,0.072666,-0.034161,-0.062593,-0.12065,0.072965,0.048427,0.081716,-0.13018,-0.013833,-0.032856,-0.073363,0.17736,0.064573,0.099,0.10601,0.066931,0.13155,0.22276,0.14263,0.10793,0.011262,0.26208,0.19122,0.020736,0.2017,0.24997,0.068639,0.1991,0.3141,0.24934,0.15711,0.23378,0.37823,0.41967,0.3228,0.2659,0.20467,0.43077,0.41945,0.1502,0.19326,0.19034,0.35885,0.18713,0.33859,0.27868,0.30342,0.14944,0.089908,0.27785,0.26031,0.13798,0.22855,0.21128,0.20239,-0.02056,-0.02536,-0.00090579,0.090306,0.15475,0.13413,0.17926,-0.10461,0.11211,0.058963,0.015262,-0.072402,0.010418,0.055467,-0.10785,0.1574,0.13024,-0.028414,-0.12088,-0.15478,-0.060951,0.058771,-0.096752,-0.139,-0.037463,-0.25168,-0.049403,-0.11102,-0.2131,0.038193,0.11175,-0.06495,0.2377,0.3567,0.46831,0.65782,0.92901,0.83375,0.95,1.2354
